PRES	HGHT	TEMP	DWPT	RELH	MIXR	DRCT	SKNT	THTA	THTE	THTV																						
1007.146309	103.9646562	18.56448874	17.58769231	90.912743	133.4526001	146.1623043	7.714645499	290.9712997	8.13311E+82	314.6581344																						
1002.241804	164.8745392	18.35764979	17.55319941	91.89819128	132.3465436	144.118491	7.613997757	291.1711129	8.09206E+81	314.6777621																						
989.1762859	282.5046663	17.49270135	17.15137809	94.60404646	126.8652729	127.2674742	8.896347357	291.3982559	6.91715E+77	313.9489306																						
960.8419789	532.8432237	15.53470383	16.1245284	100.3808007	115.0659448	119.5672247	9.808769032	291.8499295	2.0227E+69	312.3349421																						
937.0677774	746.2527336	14.14449741	14.6083687	99.60930434	107.7231236	128.7708802	10.1610043	292.5324113	6.17386E+63	311.7550394																						
916.7216435	932.7552797	13.13120218	12.92403776	95.36723315	102.9902153	142.3925725	10.16395409	293.3359549	1.09062E+60	311.7645022																						
898.3961395	1103.806981	12.28557498	11.23788231	90.21026274	99.34989241	159.099994	10.59373311	294.1629688	1.16791E+57	311.990255																						
881.1037893	1269.182457	11.54704932	9.383122489	83.68244343	96.42319533	164.6834437	11.00784432	295.0369058	3.89929E+54	312.3904305																						
864.0020979	1440.574583	10.80616237	1.706530817	53.39790904	93.55920967	172.4748847	11.79328084	295.9229102	1.94538E+52	312.8115614																						
846.987339	1608.642966	10.14507863	-0.244947555	48.48034635	91.27442306	173.3721359	12.66476734	296.9177896	1.76279E+50	313.4493996																						
829.4064076	1785.886446	9.467496379	-2.4566457	43.13640657	89.02370028	171.4360145	13.59893765	297.989532	1.71003E+48	314.1716918																						
811.567818	1970.277852	8.749740738	-4.677464352	38.35316719	86.637827	169.5431073	14.50516227	299.0863739	1.51883E+46	314.8928119																						
793.862313	2157.033929	7.974896406	-6.727744795	34.58549204	83.99148863	168.6785906	15.39405022	300.1514162	1.13385E+44	315.5296164																						
774.6300504	2364.42406	7.057795673	-8.912921027	31.08821336	80.80480822	169.7389853	16.0948085	301.2774902	4.50172E+41	316.1277388																						
755.1035402	2579.902502	6.030691343	-10.86112193	28.61520595	77.19150407	173.6866556	16.733065	302.3723772	1.2746E+39	316.6101301																						
735.4172467	2805.224506	4.982878142	-12.75880222	26.43154714	73.65916816	176.6036272	17.11656273	303.5214423	4.55066E+36	317.1592959																						
714.5686879	3045.70648	3.712116184	-14.60265144	24.86246105	69.31199793	182.0647697	17.45336846	304.629247	7.60489E+33	317.5090686																						
693.3240902	3296.199061	2.348516898	-16.45450309	23.48991791	64.82849618	184.6036766	17.73549429	305.755982	1.33396E+31	317.8472193																						
672.0198561	3554.416321	0.84379379	-18.04326829	22.891851	60.02338908	187.6038875	18.13829826	306.8114907	2.14723E+28	318.0451686																						
650.4435108	3822.7144	-0.785955157	-19.83482516	22.11221132	55.08103735	190.1980838	18.71482003	307.8453425	3.83114E+25	318.1887714																						
627.9368965	4109.55311	-2.567406142	-21.50084276	21.81941321	50.03822335	193.7634342	19.29498136	308.9264239	7.55077E+22	318.3558828																						
606.3615614	4392.52702	-4.37714788	-23.06651774	21.76389837	45.27028824	197.0735043	20.00810987	309.9429059	2.64406E+20	318.5019407																						
584.4769252	4689.152229	-6.343957557	-24.82587278	21.59344038	40.46776943	201.3010722	20.62974254	310.925228	1.13903E+18	318.6005227																						
562.6935127	4991.858466	-8.339848227	-26.46876924	21.70139457	36.05767213	205.158636	21.54819389	311.9685335	8.8053E+15	318.8303376																						
541.3070506	5298.893859	-10.4676429	-28.08320416	22.10504402	31.74691961	207.8187824	22.45087936	312.9089204	9.52385E+13	318.968596																						
520.3816353	5608.843696	-12.6235909	-29.93990825	22.07652638	27.83187122	210.3413541	23.60005463	313.8582524	1.79659E+12	319.1867625																						
499.9169533	5922.944937	-14.8877178	-31.5876385	22.7000143	24.13362421	212.1374861	24.87995039	314.7196658	49693357001	319.3528148																						
480.4197619	6230.749658	-17.10818194	-33.43276911	22.84109796	20.92772366	216.9779291	26.01401504	315.5824423	2454067465	319.6111398																						
460.0812896	6566.134279	-19.54355352	-35.25788438	23.46830838	17.82675621	220.7047822	27.31620732	316.470078	149514774.2	319.9114753																						
440.7264059	6891.947758	-21.95385542	-37.12672894	23.98663561	15.15384404	224.9662767	28.43181528	317.3373579	14651176.55	320.2707752																						
422.473034	7214.635614	-24.28671068	-39.07226351	24.18404496	12.90915337	226.0858429	29.68883976	318.2148766	2223220.575	320.7206862																						
403.304841	7562.697589	-26.84172651	-41.21641393	24.38563631	10.78386955	229.1736494	31.08308033	319.1561921	399208.8351	321.2556527																						
385.92172	7889.825907	-29.25260224	-43.17190142	24.77339617	9.063075139	232.8229513	32.45307188	320.0377515	104793.1796	321.8070724																						
368.97871	8219.359089	-31.67677304	-45.23632891	24.92556721	7.580744901	233.8310568	33.90080474	320.9495343	34504.99723	322.4336866																						
352.8830372	8543.570108	-34.00551446	-47.16542256	25.23905996	6.367770657	232.4363229	35.3256494	321.932985	14304.30521	323.1834822																						
337.0255054	8873.372119	-36.35000906	-49.15939235	25.42987855	5.32508517	236.9467471	36.52729357	322.9943611	6888.17713	324.0435443																						
321.7288651	9205.299715	-38.62745237	-51.24710203	25.1870366	4.46470058	239.2680741	37.91262736	324.1638585	3843.248027	325.0467082																						
307.5888965	9519.878387	-40.75959967	-53.22317793	24.89586642	3.776203585	239.3745468	39.30099572	325.3704923	2447.598983	326.1199781																						
293.345081	9850.513303	-42.93001922	-55.27637882	24.47407632	3.176717951	241.8532917	40.53696274	326.7304542	1674.63152	327.3635918																						
279.5599556	10183.20925	-45.01376903	-57.24190588	24.08333975	2.687325736	242.9097617	41.62535217	328.2591039	1240.574196	328.7972088																						
267.3183053	10493.46431	-46.84492817	-59.09789472	23.35443431	2.31804907	244.3526199	42.4901348	329.8193442	996.3418368	330.2857121																						
254.9403482	10816.90057	-48.63434332	-60.78854514	23.005306	2.007504838	244.167024	43.48098878	331.6766883	832.595008	332.0828523																						
243.4087454	11129.08779	-50.27720507	-62.48366103	22.26145869	1.759260081	245.7864855	44.51415007	333.6357044	724.7772147	333.9937451																						
232.8192968	11428.39062	-51.7316852	-64.00325027	21.55147684	1.567246298	248.781046	45.06747694	335.7003561	653.0636864	336.0212924																						
222.3282312	11735.39568	-53.18287729	-65.80084323	20.06411806	1.396021162	249.4056917	45.13851031	337.9255736	597.4709795	338.2133418																						
212.4461121	12043.4072	-54.44229988	-67.48733528	18.49350101	1.267353415	251.2421443	45.03993673	340.3869949	559.6968004	340.6501431																						
202.5503326	12362.91056	-55.70195839	-69.07584066	17.24173872	1.151187438	251.8308635	44.78884093	343.0736677	529.1131732	343.3145824																						
193.1127247	12680.5877	-56.90892324	-70.48738217	16.34916058	1.050341408	253.3967823	44.71379103	345.8556848	505.2514557	346.0772774																						
184.3869444	12989.27765	-57.92749104	-71.7412522	15.47299355	0.97677458	255.0176359	44.35445761	348.8077081	489.1738735	349.0155391																						
175.7696947	13305.27967	-58.8909637	-73.19979267	14.08934237	0.914752643	254.2878356	43.54078688	352.0310842	476.7881558	352.2275172																						
167.5329114	13617.60532	-59.74157179	-74.64124229	12.64773098	0.867507192	257.7760804	42.83604516	355.4786852	468.1744826	355.6667972																						
159.458106	13934.97093	-60.61510601	-75.93495179	11.61677183	0.820925718	259.9340843	42.13897368	359.0597268	460.6283237	359.2395312																						
151.6997517	14254.84022	-61.40860064	-77.26590501	10.47744074	0.784114936	261.2635178	41.24458521	362.8576954	455.4457428	363.0312539																						
144.5610143	14543.90746	-62.13520954	-78.40018252	9.640061366	0.753283416	260.0835916	39.65236184	366.6312076	451.76979	366.7996757																						
137.5394878	14857.52458	-62.83812759	-79.61391924	8.715134455	0.726482829	260.6716711	38.51259187	370.6497333	449.2382927	370.8139884																						
131.1930933	15167.2575	-63.38579328	-80.49782712	8.125352043	0.711970897	258.4539096	36.82219751	374.7124956	448.7291347	374.8752341																						
124.9863799	15456.85119	-63.97709534	-81.52613862	7.433070585	0.694585669	259.8098827	35.490853	378.8708126	448.2029663	379.0313391																						
118.8604537	15764.02907	-64.51296297	-82.35143074	6.969410675	0.683267079	260.9420952	33.98960849	383.3702125	448.828164	383.5299985																						
113.224357	16057.05983	-64.94922148	-83.2559271	6.35603852	0.679204468	259.8966176	32.8252725	387.9203335	450.527913	388.0810546																						
107.8993202	16348.38271	-65.34790471	-84.05643485	5.861388784	0.677933955	260.612148	31.50215454	392.548179	452.7222709	392.7105133																						
102.7008515	16639.22051	-65.70889535	-84.81829559	5.407156109	0.680581983	260.6019667	29.91714086	397.4390071	455.5866013	397.6040059																						
97.99353113	16919.10221	-65.96345798	-85.31345627	5.142074192	0.690696537	258.9925134	28.35353314	402.3134452	459.267608	402.4829499																						
93.48596253	17196.39245	-66.18103676	-85.90819231	4.779920948	0.704321273	256.4973811	26.69043081	407.3398369	463.4094946	407.5148448																						
89.37671856	17458.75418	-66.30980641	-86.51997451	4.373298351	0.724766689	256.6055582	25.28867759	412.3535065	468.185395	412.5358112																						
85.6243393	17708.08333	-66.37428105	-86.92963377	4.106397337	0.750360279	252.7396878	24.21729308	417.3126685	473.3545657	417.5036808																						
81.99441868	17963.22816	-66.43416699	-87.26462535	3.903057095	0.777639444	251.6854993	23.02269569	422.3924836	478.6847845	422.5928498																						
78.69311607	18207.8814	-66.36585276	-87.49618464	3.711530519	0.817325869	248.2742965	22.00727016	427.5276266	485.02154	427.7407785																						
75.38571819	18458.86607	-66.28039063	-87.68434862	3.547937726	0.862491847	250.606823	21.05303113	432.989136	491.8763505	433.2169402																						
72.40495222	18688.01343	-66.19934794	-87.81934335	3.425613836	0.907278503	248.1819899	20.36150563	438.1856776	498.4173894	438.428187																						
69.55209366	18933.6845	-66.00284467	-87.99339298	3.233015774	0.96830006	246.2355247	19.5803267	443.6736717	506.2488311	443.9357334																						
66.76851625	19180.31675	-65.78289744	-88.08177101	3.088344315	1.037111005	244.3986901	18.81010152	449.3637999	514.5883596	449.6480844																						
64.15445832	19424.07216	-65.56875456	-88.22421245	2.924260954	1.108928683	241.4475227	18.1879338	454.9957059	522.9120974	455.3034862																						
61.65086494	19670.62275	-65.26786092	-88.3544615	2.742556462	1.198497739	237.9226096	17.20578724	460.8728127	532.4218606	461.2097492																						
59.19004151	19924.58934	-64.9434461	-88.47819539	2.56723469	1.300187501	236.1461767	16.64893442	467.001514	542.6358647	467.3718996																						
56.86033639	20171.60762	-64.64805249	-88.54383	2.438122978	1.404410656	233.8148688	16.15754641	473.0663628	552.6898446	473.4716342																						
54.63959087	20416.53258	-64.33365972	-88.60170248	2.313114241	1.519943102	229.7338223	15.71160168	479.2093374	563.2388669	479.6536437																						
52.56434452	20653.62143	-63.96854569	-88.61858201	2.196115095	1.65332454	226.7474754	15.31146997	485.3934859	574.6508502	485.8830188																						
50.53785163	20901.93964	-63.60359145	-88.6127043	2.094035111	1.799160266	222.3484893	15.28631779	491.7392004	586.5624187	492.2788781																						
48.58859236	21156.50035	-63.18821092	-88.56847286	1.997508173	1.969789219	220.3198409	15.31604538	498.2887387	599.7118267	498.8874682																						
46.67950352	21422.42305	-62.73561637	-88.57208875	1.880365086	2.167654596	219.7341772	15.06543393	505.1212196	614.1783355	505.7891259																						
44.86218746	21676.13711	-62.28920158	-88.52772128	1.787383904	2.382135735	219.7641527	14.97836609	511.9752718	629.1316565	512.7192245																						
43.18480387	21924.50709	-61.82171966	-88.46902682	1.699179202	2.619744805	216.393365	15.00346837	518.7338596	644.8974944	519.5628193																						
41.45033473	22187.46808	-61.30560963	-88.36020404	1.620141048	2.905706635	213.5344354	15.03296653	526.1339541	663.0139284	527.0665165																						
39.76430059	22465.08087	-60.80904672	-88.3299134	1.527614895	3.216041849	212.9765938	15.15851501	533.6687423	681.8276051	534.7156859																						
38.03305442	22748.62924	-60.23162654	-88.17001954	1.459430511	3.603924373	208.2105578	15.57144893	541.9771401	704.2641469	543.1686194																						
36.50037252	23010.38737	-59.74628988	-88.09506196	1.39010882	3.979528204	207.8118644	15.76511924	549.6415665	725.0607943	550.9758281																						
34.99042107	23298.56639	-59.26130617	-88.0023309	1.328758532	4.397836938	208.4611793	16.02306967	557.5883469	747.2839195	559.0841783																						
33.51070023	23567.81654	-58.79508604	-87.86646742	1.283326826	4.852747519	210.171611	16.43525605	565.753107	770.4503195	567.4278358																						
32.12689656	23848.85863	-58.29416528	-87.72551237	1.235493148	5.369752899	211.6197661	16.68301484	573.9570266	795.8775157	575.8370512																						
30.83912392	24114.83724	-57.77046719	-87.58914649	1.18545157	5.948557512	210.2028915	17.11386126	582.1282583	823.4564193	584.2405806																						
29.57338318	24382.60717	-57.24827826	-87.41577838	1.145496088	6.593217128	209.7094763	17.251613	590.5770704	853.108682	592.9522902																						
28.42378856	24611.28908	-56.82550659	-87.27226944	1.114997348	7.205515909	207.8593793	17.70816429	598.4824344	880.0703925	601.1129829																						
27.40209534	24840.30496	-56.43947651	-87.19105376	1.078524816	7.815986305	209.793239	18.245374	605.8611899	906.165606	608.7497856																						
26.24072765	25143.17262	-55.91437622	-87.07712861	1.031747474	8.671569678	210.0715646	18.51779025	614.8992508	942.1885054	618.1518573																						
25.22019465	25375.30413	-55.47966426	-86.90387112	1.008712859	9.484335183	214.6818839	18.80355451	623.1603503	975.1041908	626.7656099																						
24.23691466	25640.88851	-55.01668579	-86.74802753	0.979997997	10.40577567	214.9567446	19.27327688	631.6299778	1011.758757	635.6392637																						
