PRES	HGHT	TEMP	DWPT	RELH	MIXR	DRCT	SKNT	THTA	THTE	THTV																						
1007.146309	103.9646562	18.56448874	18.44866063	90.912743	133.4526001	146.1623043	7.714645499	291.1209946	8.35311E+82	314.8200153																						
1002.241804	164.8745392	18.35764979	18.25507845	91.89819128	132.3465436	144.118491	7.613997757	291.3210169	8.30808E+81	314.839768																						
989.1762859	282.5046663	17.49270135	17.42577318	94.60404646	126.8652729	127.2674742	8.896347357	291.5487235	7.09187E+77	314.1110426																						
960.8419789	532.8432237	15.53470383	15.53922574	100.3808007	115.0659448	119.5672247	9.808769032	292.001653	2.06774E+69	312.4973151																						
937.0677774	746.2527336	14.14449741	14.13988759	99.60930434	107.7231236	128.7708802	10.1610043	292.6852259	6.2995E+63	311.9178956																						
916.7216435	932.7552797	13.13120218	13.07576984	95.36723315	102.9902153	142.3925725	10.16395409	295.3486857	1.11843E+60	313.9036808																						
898.3961395	1103.806981	12.28557498	12.16595922	90.21026274	99.34989241	159.099994	10.59373311	297.8841921	1.20337E+57	315.9369972																						
881.1037893	1269.182457	11.54704932	11.3414236	83.68244343	96.42319533	164.6834437	11.00784432	300.3741151	4.03586E+54	318.0415646																						
864.0020979	1440.574583	10.80616237	10.08733506	53.39790904	93.55920967	172.4748847	11.79328084	302.8967953	1.99123E+52	320.183454																						
846.987339	1608.642966	10.14507863	9.319981841	48.48034635	91.27442306	173.3721359	12.66476734	303.9314579	1.80443E+50	320.8535707																						
829.4064076	1785.886446	9.467496379	8.51462012	43.13640657	89.02370028	171.4360145	13.59893765	305.0454017	1.75053E+48	321.6107267																						
811.567818	1970.277852	8.749740738	7.670035765	38.35316719	86.637827	169.5431073	14.50516227	306.1862557	1.55489E+46	322.3679159																						
793.862313	2157.033929	7.974896406	6.786159697	34.58549204	83.99148863	168.6785906	15.39405022	307.2962297	1.16084E+44	323.040493																						
774.6300504	2364.42406	7.057795673	5.75929853	31.08821336	80.80480822	169.7389853	16.0948085	308.4725936	4.60923E+41	323.6774955																						
755.1035402	2579.902502	6.030691343	4.651313717	28.61520595	77.19150407	173.6866556	16.733065	309.6202099	1.30515E+39	324.1992402																						
735.4172467	2805.224506	4.982878142	3.528099796	26.43154714	73.65916816	176.6036272	17.11656273	310.8242414	4.66015E+36	324.790225																						
714.5686879	3045.70648	3.712116184	2.205488428	24.86246105	69.31199793	182.0647697	17.45336846	311.9923596	7.78871E+33	325.183496																						
693.3240902	3296.199061	2.348516898	0.797085126	23.48991791	64.82849618	184.6036766	17.73549429	313.1829275	1.36636E+31	325.5678662																						
672.0198561	3554.416321	0.84379379	-0.716887895	22.891851	60.02338908	187.6038875	18.13829826	314.3050256	2.19968E+28	325.8130738																						
650.4435108	3822.7144	-0.785955157	-2.36303522	22.11221132	55.08103735	190.1980838	18.71482003	315.4091433	3.92527E+25	326.0067116																						
627.9368965	4109.55311	-2.567406142	-4.136363931	21.81941321	50.03822335	193.7634342	19.29498136	316.5667878	7.73751E+22	326.229456																						
606.3615614	4392.52702	-4.37714788	-5.926518009	21.76389837	45.27028824	197.0735043	20.00810987	317.6600527	2.70989E+20	326.4321956																						
584.4769252	4689.152229	-6.343957557	-7.877199703	21.59344038	40.46776943	201.3010722	20.62974254	318.723934	1.1676E+18	326.5917425																						
562.6935127	4991.858466	-8.339848227	-9.843977213	21.70139457	36.05767213	205.158636	21.54819389	319.8524181	9.02782E+15	326.8876296																						
541.3070506	5298.893859	-10.4676429	-11.92850093	22.10504402	31.74691961	207.8187824	22.45087936	320.8806605	9.76648E+13	327.0947137																						
520.3816353	5608.843696	-12.6235909	-14.06031921	22.07652638	27.83187122	210.3413541	23.60005463	321.9203851	1.84274E+12	327.3857696																						
499.9169533	5922.944937	-14.8877178	-16.27218664	22.7000143	24.13362421	212.1374861	24.87995039	322.8748398	50981036212	327.6280452																						
480.4197619	6230.749658	-17.10818194	-18.46181074	22.84109796	20.92772366	216.9779291	26.01401504	323.8309323	2518210295	327.9649293																						
460.0812896	6566.134279	-19.54355352	-20.84572963	23.46830838	17.82675621	220.7047822	27.31620732	324.8212482	153460244.6	328.3534588																						
440.7264059	6891.947758	-21.95385542	-23.21068917	23.98663561	15.15384404	224.9662767	28.43181528	325.7918139	15041511.08	328.8033829																						
422.473034	7214.635614	-24.28671068	-25.51176364	24.18404496	12.90915337	226.0858429	29.68883976	326.7722307	2283006.861	329.3454259																						
403.304841	7562.697589	-26.84172651	-28.03314005	24.38563631	10.78386955	229.1736494	31.08308033	327.8279443	410055.6875	329.9844491																						
385.92172	7889.825907	-29.25260224	-30.40628839	24.77339617	9.063075139	232.8229513	32.45307188	328.8194645	107668.6642	330.637335																						
368.97871	8219.359089	-31.67677304	-32.80117433	24.92556721	7.580744901	233.8310568	33.90080474	329.8447329	35461.31207	331.3700189																						
352.8830372	8543.570108	-34.00551446	-35.09700532	25.23905996	6.367770657	232.4363229	35.3256494	330.9423798	14704.61564	332.2278726																						
337.0255054	8873.372119	-36.35000906	-37.41291995	25.42987855	5.32508517	236.9467471	36.52729357	332.1230092	7082.854663	333.201845																						
321.7288651	9205.299715	-38.62745237	-39.67586137	25.1870366	4.46470058	239.2680741	37.91262736	333.4145857	3952.923544	334.3226294																						
307.5888965	9519.878387	-40.75959967	-41.79632514	24.89586642	3.776203585	239.3745468	39.30099572	334.7408984	2518.087847	335.5119688																						
293.345081	9850.513303	-42.93001922	-43.95852649	24.47407632	3.176717951	241.8532917	40.53696274	336.2287935	1723.314519	336.880337																						
279.5599556	10183.20925	-45.01376903	-46.03388837	24.08333975	2.687325736	242.9097617	41.62535217	337.8891015	1276.968393	338.4429925																						
267.3183053	10493.46431	-46.84492817	-47.86909202	23.35443431	2.31804907	244.3526199	42.4901348	339.5734579	1025.80776	340.0536181																						
254.9403482	10816.90057	-48.63434332	-49.65157003	23.005306	2.007504838	244.167024	43.48098878	341.5639628	857.4146461	341.9822345																						
243.4087454	11129.08779	-50.27720507	-51.30078937	22.26145869	1.759260081	245.7864855	44.51415007	343.654739	746.5421753	344.0235316																						
232.8192968	11428.39062	-51.7316852	-52.76262722	21.55147684	1.567246298	248.781046	45.06747694	345.8476583	672.8040127	346.1782957																						
222.3282312	11735.39568	-53.18287729	-54.24645536	20.06411806	1.396021162	249.4056917	45.13851031	348.2075727	615.6501188	348.5040968																						
212.4461121	12043.4072	-54.44229988	-55.54583891	18.49350101	1.267353415	251.2421443	45.03993673	350.803568	576.8247246	351.0747692																						
202.5503326	12362.91056	-55.70195839	-56.83686587	17.24173872	1.151187438	251.8308635	44.78884093	353.6333194	545.3990363	353.8816493																						
193.1127247	12680.5877	-56.90892324	-58.06402398	16.34916058	1.050341408	253.3967823	44.71379103	356.5604244	520.8897276	356.7888756																						
184.3869444	12989.27765	-57.92749104	-59.10547396	15.47299355	0.97677458	255.0176359	44.35445761	359.6549467	504.3862258	359.8692408																						
175.7696947	13305.27967	-58.8909637	-60.11581745	14.08934237	0.914752643	254.2878356	43.54078688	363.0278262	491.6820574	363.2303954																						
167.5329114	13617.60532	-59.74157179	-61.02242315	12.64773098	0.867507192	257.7760804	42.83604516	366.6274147	482.8576433	366.8214264																						
159.458106	13934.97093	-60.61510601	-61.93653944	11.61677183	0.820925718	259.9340843	42.13897368	370.3670834	475.1342356	370.5525502																						
151.6997517	14254.84022	-61.40860064	-62.78183463	10.47744074	0.784114936	261.2635178	41.24458521	374.3275087	469.842234	374.5065533																						
144.5610143	14543.90746	-62.13520954	-63.5482675	9.640061366	0.753283416	260.0835916	39.65236184	378.2602346	466.0992933	378.4340463																						
137.5394878	14857.52458	-62.83812759	-64.30109111	8.715134455	0.726482829	260.6716711	38.51259187	382.4455437	463.5351592	382.6150262																						
131.1930933	15167.2575	-63.38579328	-64.88200555	8.125352043	0.711970897	258.4539096	36.82219751	386.6687592	463.0471088	386.8366903																						
124.9863799	15456.85119	-63.97709534	-65.5165605	7.433070585	0.694585669	259.8098827	35.490853	390.9939573	462.544608	391.1596204																						
118.8604537	15764.02907	-64.51296297	-66.08156049	6.969410675	0.683267079	260.9420952	33.98960849	395.6688593	463.2267241	395.8337713																						
113.224357	16057.05983	-64.94922148	-66.5643044	6.35603852	0.679204468	259.8966176	32.8252725	400.3910446	465.0113081	400.5569325																						
107.8993202	16348.38271	-65.34790471	-67.00320083	5.861388784	0.677933955	260.612148	31.50215454	405.1918932	467.3041523	405.3594561																						
102.7008515	16639.22051	-65.70889535	-67.4044693	5.407156109	0.680581983	260.6019667	29.91714086	410.2625445	470.2862953	410.4328671																						
97.99353113	16919.10221	-65.96345798	-67.68342014	5.142074192	0.690696537	258.9925134	28.35353314	415.310219	474.1042914	415.4851995																						
93.48596253	17196.39245	-66.18103676	-67.9389457	4.779920948	0.704321273	256.4973811	26.69043081	420.5128326	478.3957314	420.6935																						
89.37671856	17458.75418	-66.30980641	-68.11619978	4.373298351	0.724766689	256.6055582	25.28867759	425.6969475	483.3355128	425.8851514																						
85.6243393	17708.08333	-66.37428105	-68.21543102	4.106397337	0.750360279	252.7396878	24.21729308	430.8207979	488.6767335	431.0179931																						
81.99441868	17963.22816	-66.43416699	-68.3031493	3.903057095	0.777639444	251.6854993	23.02269569	436.069007	494.1839799	436.2758607																						
78.69311607	18207.8814	-66.36585276	-68.26489356	3.711530519	0.817325869	248.2742965	22.00727016	441.3658428	500.7207194	441.585894																						
75.38571819	18458.86607	-66.28039063	-68.20687559	3.547937726	0.862491847	250.606823	21.05303113	446.9983363	507.7908245	447.2335111																						
72.40495222	18688.01343	-66.19934794	-68.14751589	3.425613836	0.907278503	248.1819899	20.36150563	452.3574541	514.5371766	452.6078068																						
69.55209366	18933.6845	-66.00284467	-67.98813759	3.233015774	0.96830006	246.2355247	19.5803267	458.0093188	522.6063592	458.279848																						
66.76851625	19180.31675	-65.78289744	-67.79900346	3.088344315	1.037111005	244.3986901	18.81010152	463.8678906	531.1976998	464.1613509																						
64.15445832	19424.07216	-65.56875456	-67.62073293	2.924260954	1.108928683	241.4475227	18.1879338	469.6664163	539.7726784	469.9841205																						
61.65086494	19670.62275	-65.26786092	-67.36323239	2.742556462	1.198497739	237.9226096	17.20578724	475.7114977	549.5642046	476.0592826																						
59.19004151	19924.58934	-64.9434461	-67.08406034	2.56723469	1.300187501	236.1461767	16.64893442	482.0140792	560.079826	482.3963715																						
56.86033639	20171.60762	-64.64805249	-66.82512547	2.438122978	1.404410656	233.8148688	16.15754641	488.2523323	570.4318187	488.6706134																						
54.63959087	20416.53258	-64.33365972	-66.54840773	2.313114241	1.519943102	229.7338223	15.71160168	494.569326	581.292235	495.0278735																						
52.56434452	20653.62143	-63.96854569	-66.22191909	2.196115095	1.65332454	226.7474754	15.31146997	500.9245182	593.0378314	501.4297146																						
50.53785163	20901.93964	-63.60359145	-65.89329771	2.094035111	1.799160266	222.3484893	15.28631779	507.4458524	605.2978211	508.002768																						
48.58859236	21156.50035	-63.18821092	-65.51543052	1.997508173	1.969789219	220.3198409	15.31604538	514.1730798	618.8293112	514.7908955																						
46.67950352	21422.42305	-62.73561637	-65.10931094	1.880365086	2.167654596	219.7341772	15.06543393	521.1887052	633.7148372	521.877857																						
44.86218746	21676.13711	-62.28920158	-64.70379805	1.787383904	2.382135735	219.7641527	14.97836609	528.2262764	649.1014129	528.9938435																						
43.18480387	21924.50709	-61.82171966	-64.27796925	1.699179202	2.619744805	216.393365	15.00346837	535.1629443	665.3223719	536.0181584																						
41.45033473	22187.46808	-61.30560963	-63.80326859	1.620141048	2.905706635	213.5344354	15.03296653	542.7567855	683.9613861	543.7188116																						
39.76430059	22465.08087	-60.80904672	-63.35464891	1.527614895	3.216041849	212.9765938	15.15851501	550.4901727	703.3190561	551.5701164																						
38.03305442	22748.62924	-60.23162654	-62.81971963	1.459430511	3.603924373	208.2105578	15.57144893	559.0140928	726.402562	560.243026																						
36.50037252	23010.38737	-59.74628988	-62.37661485	1.39010882	3.979528204	207.8118644	15.76511924	566.8801269	747.8010764	568.2562353																						
34.99042107	23298.56639	-59.26130617	-61.93201145	1.328758532	4.397836938	208.4611793	16.02306967	575.0364636	770.6680112	576.5791027																						
33.51070023	23567.81654	-58.79508604	-61.49961463	1.283326826	4.852747519	210.171611	16.43525605	583.4181842	794.5068632	585.1452047																						
32.12689656	23848.85863	-58.29416528	-61.03565559	1.235493148	5.369752899	211.6197661	16.68301484	591.8364518	820.6700207	593.7750413																						
30.83912392	24114.83724	-57.77046719	-60.55188873	1.18545157	5.948557512	210.2028915	17.11386126	600.218103	849.0456233	602.3960665																						
29.57338318	24382.60717	-57.24827826	-60.0654966	1.145496088	6.593217128	209.7094763	17.251613	608.8850463	879.5551764	611.3338982																						
28.42378856	24611.28908	-56.82550659	-59.67140923	1.114997348	7.205515909	207.8593793	17.70816429	616.9991935	907.2993479	619.71113																						
27.40209534	24840.30496	-56.43947651	-59.31710819	1.078524816	7.815986305	209.793239	18.245374	624.5728303	934.1519587	627.5506384																						
26.24072765	25143.17262	-55.91437622	-58.83488165	1.031747474	8.671569678	210.0715646	18.51779025	633.8440899	971.2170164	637.196908																						
25.22019465	25375.30413	-55.47966426	-58.42697698	1.008712859	9.484335183	214.6818839	18.80355451	642.3213413	1005.086783	646.0374557																						
24.23691466	25640.88851	-55.01668579	-57.99577612	0.979997997	10.40577567	214.9567446	19.27327688	651.0101442	1042.802333	655.1424462																						
